X Density
0.005 2.999999824
0.015 2.999999689
0.025 2.999999475
0.035 2.999999131
0.045 2.999998581
0.055 2.999997714
0.065 2.999996363
0.075 2.999994279
0.085 2.999991099
0.095 2.999986293
0.105 2.999979098
0.115 2.999968425
0.125 2.999952737
0.135 2.999929879
0.145 2.999896867
0.155 2.999849594
0.165 2.999782474
0.175 2.999687973
0.185 2.999556025
0.195 2.99937331
0.205 2.999122368
0.215 2.998780534
0.225 2.998318669
0.235 2.997699679
0.245 2.996876814
0.255 2.995791742
0.265 2.994372435
0.275 2.992530875
0.285 2.99016066
0.295 2.987134562
0.305 2.983302164
0.315 2.978487695
0.325 2.972488207
0.335 2.9650723
0.345 2.955979558
0.355 2.944920932
0.365 2.931580244
0.375 2.915617025
0.385 2.896670828
0.395 2.874367143
0.405 2.848324941
0.415 2.818165837
0.425 2.783524734
0.435 2.744061724
0.445 2.699474929
0.455 2.649513828
0.465 2.593992584
0.475 2.53280275
0.485 2.465924761
0.495 2.393437547
0.505 2.315525685
0.515 2.232483546
0.525 2.144716019
0.535 2.052735541
0.545 1.957155327
0.555 1.858678888
0.565 1.75808614
0.575 1.656216554
0.585 1.55395002
0.595 1.452186173
0.605 1.351823066
0.615 1.253736075
0.625 1.158757927
0.635 1.067660644
0.645 0.9811401112
0.655 0.8998037729
0.665 0.8241618048
0.675 0.7546218963
0.685 0.6914875731
0.695 0.6349598141
0.705 0.5851415518
0.715 0.5420445323
0.725 0.505597933
0.735 0.4756581094
0.745 0.452018861
0.755 0.4344216595
0.765 0.4225653797
0.775 0.4161151791
0.785 0.4147103024
0.795 0.4179707096
0.805 0.4255025411
0.815 0.4369025344
0.825 0.4517615748
0.835 0.4696676107
0.845 0.4902081762
0.855 0.5129727505
0.865 0.5375551382
0.875 0.563555988
0.885 0.5905854521
0.895 0.6182658093
0.905 0.6462335174
0.915 0.6741392915
0.925 0.7016429924
0.935 0.7283934941
0.945 0.7539773582
0.955 0.7777431867
0.965 0.7985432448
0.975 0.8129248062
0.985 0.8167014416
0.995 0.7742201321
1.005 -1.225779868
