X Density
0.005 2.999999999
0.015 2.999999998
0.025 2.999999997
0.035 2.999999994
0.045 2.99999999
0.055 2.999999984
0.065 2.999999975
0.075 2.99999996
0.085 2.999999936
0.095 2.9999999
0.105 2.999999845
0.115 2.999999761
0.125 2.999999634
0.135 2.999999443
0.145 2.99999916
0.155 2.999998741
0.165 2.999998125
0.175 2.999997227
0.185 2.999995924
0.195 2.999994048
0.205 2.999991362
0.215 2.999987542
0.225 2.99998214
0.235 2.999974552
0.245 2.999963955
0.255 2.999949247
0.265 2.999928959
0.275 2.999901141
0.285 2.999863229
0.295 2.999811871
0.305 2.999742714
0.315 2.99965015
0.325 2.999526995
0.335 2.999364121
0.345 2.999150002
0.355 2.998870195
0.365 2.998506733
0.375 2.99803742
0.385 2.997435049
0.395 2.996666511
0.405 2.99569183
0.415 2.994463101
0.425 2.99292338
0.435 2.991005511
0.445 2.988630947
0.455 2.985708587
0.465 2.982133675
0.475 2.977786815
0.485 2.972533172
0.495 2.966221901
0.505 2.958685912
0.515 2.949742012
0.525 2.939191518
0.535 2.926821413
0.545 2.912406088
0.555 2.895709747
0.565 2.876489481
0.575 2.854499043
0.585 2.829493298
0.595 2.801233306
0.605 2.769491961
0.615 2.73406009
0.625 2.694752847
0.635 2.651416261
0.645 2.603933715
0.655 2.552232163
0.665 2.496287844
0.675 2.436131261
0.685 2.371851214
0.695 2.30359767
0.705 2.231583302
0.715 2.156083552
0.725 2.077435139
0.735 1.996032966
0.745 1.91232546
0.755 1.826808422
0.765 1.740017532
0.775 1.652519715
0.785 1.564903597
0.795 1.477769342
0.805 1.391718176
0.815 1.3073419
0.825 1.225212713
0.835 1.145873631
0.845 1.069829742
0.855 0.9975404937
0.865 0.9294130889
0.875 0.8657968915
0.885 0.8069783674
0.895 0.7531752715
0.905 0.7045269544
0.915 0.661073088
0.925 0.6227036859
0.935 0.5890333404
0.945 0.5591231661
0.955 0.5306807374
0.965 0.4988938207
0.975 0.4497160805
0.985 0.3655578426
0.995 0.122587602
1.005 -1.877412398
