X Density
0.005 2.999999999
0.015 2.999999999
0.025 2.999999998
0.035 2.999999997
0.045 2.999999995
0.055 2.999999993
0.065 2.999999988
0.075 2.999999981
0.085 2.99999997
0.095 2.999999952
0.105 2.999999926
0.115 2.999999885
0.125 2.999999823
0.135 2.999999731
0.145 2.999999593
0.155 2.999999388
0.165 2.999999085
0.175 2.999998643
0.185 2.999997998
0.195 2.999997065
0.205 2.999995725
0.215 2.999993808
0.225 2.999991086
0.235 2.999987241
0.245 2.999981844
0.255 2.999974313
0.265 2.999963863
0.275 2.999949451
0.285 2.999929688
0.295 2.999902746
0.305 2.999866228
0.315 2.999817017
0.325 2.999751084
0.335 2.999663253
0.345 2.999546928
0.355 2.999393747
0.365 2.999193194
0.375 2.998932126
0.385 2.998594237
0.395 2.998159432
0.405 2.997603131
0.415 2.996895477
0.425 2.996000473
0.435 2.994875036
0.445 2.993467996
0.455 2.99171904
0.465 2.989557639
0.475 2.986901974
0.485 2.98365791
0.495 2.979718054
0.505 2.974960947
0.515 2.969250457
0.525 2.962435422
0.535 2.954349615
0.545 2.944812105
0.555 2.933628054
0.565 2.920590038
0.575 2.90547992
0.585 2.888071322
0.595 2.868132717
0.605 2.845431136
0.615 2.819736467
0.625 2.790826307
0.635 2.75849127
0.645 2.722540666
0.655 2.682808403
0.665 2.639158967
0.675 2.591493286
0.685 2.539754302
0.695 2.483932035
0.705 2.424067951
0.715 2.360258425
0.725 2.292657134
0.735 2.221476233
0.745 2.14698619
0.755 2.069514218
0.765 1.989441273
0.775 1.907197653
0.785 1.823257273
0.795 1.738130734
0.805 1.652357388
0.815 1.566496588
0.825 1.481118372
0.835 1.396793857
0.845 1.314085576
0.855 1.233538017
0.865 1.155668496
0.875 1.08095839
0.885 1.009844335
0.895 0.9427082026
0.905 0.879862784
0.915 0.8215255229
0.925 0.7677633164
0.935 0.7183625735
0.945 0.6725505667
0.955 0.6282218372
0.965 0.5808183497
0.975 0.5171216803
0.985 0.420557268
0.995 0.1783100163
1.005 -1.821689984
