X Density
0.005 3
0.015 3
0.025 3
0.035 3
0.045 3
0.055 2.999999999
0.065 2.999999999
0.075 2.999999998
0.085 2.999999997
0.095 2.999999995
0.105 2.999999992
0.115 2.999999987
0.125 2.99999998
0.135 2.99999997
0.145 2.999999954
0.155 2.99999993
0.165 2.999999894
0.175 2.999999842
0.185 2.999999764
0.195 2.999999651
0.205 2.999999486
0.215 2.999999248
0.225 2.999998905
0.235 2.999998415
0.245 2.999997717
0.255 2.999996729
0.265 2.999995337
0.275 2.999993388
0.285 2.999990672
0.295 2.999986909
0.305 2.99998172
0.315 2.999974603
0.325 2.999964893
0.335 2.999951714
0.345 2.99993392
0.355 2.999910017
0.365 2.999878076
0.375 2.999835613
0.385 2.999779455
0.395 2.999705569
0.405 2.999608859
0.415 2.999482928
0.425 2.999319795
0.435 2.999109561
0.445 2.998840025
0.455 2.998496248
0.465 2.998060048
0.475 2.997509443
0.485 2.99681803
0.495 2.995954302
0.505 2.994880915
0.515 2.99355391
0.525 2.9919219
0.535 2.989925235
0.545 2.987495177
0.555 2.984553101
0.565 2.98100975
0.575 2.976764586
0.585 2.971705275
0.595 2.965707342
0.605 2.958634046
0.615 2.950336523
0.625 2.940654232
0.635 2.929415766
0.645 2.916440047
0.655 2.901537943
0.665 2.884514341
0.675 2.865170663
0.685 2.843307845
0.695 2.81872974
0.705 2.791246919
0.715 2.760680811
0.725 2.726868104
0.735 2.689665317
0.745 2.648953435
0.755 2.604642485
0.765 2.556675909
0.775 2.505034608
0.785 2.44974051
0.795 2.39085952
0.805 2.328503726
0.815 2.262832753
0.825 2.19405416
0.835 2.122422813
0.845 2.048239183
0.855 1.971846519
0.865 1.893626853
0.875 1.8139957
0.885 1.733395152
0.895 1.652284561
0.905 1.571127056
0.915 1.490367884
0.925 1.410396586
0.935 1.331475484
0.945 1.253608546
0.955 1.176272101
0.965 1.098054833
0.975 1.015560418
0.985 0.9245566381
0.995 0.8115993996
1.005 -1.1884006
